#ZVView-data-copy:  26-Feb-2021 10:43:30
#=======================================
#
#name:   ENDF/B-VIII.0: AL-27(N,EL)AL-27-L0
#X.axis: Incident Energy
#Y.axis: Cross Section
#wdata:  2
#ldata:  3891
#data...
#            X            Y
#          MeV        barns
         1e-11      15.6821 
   1.10304e-11      14.9371 
   1.21669e-11       14.228 
   1.34206e-11      13.5532 
   1.48034e-11      12.9109 
   1.63287e-11      12.2996 
   1.80949e-11      11.6912 
   1.99594e-11       11.139 
   2.20159e-11      10.6136 
   2.42843e-11      10.1137 
   2.67865e-11      9.63813 
   2.95465e-11      9.18574 
   3.25909e-11      8.75544 
   3.59489e-11      8.34618 
    3.9653e-11      7.95699 
   4.37387e-11      7.58692 
   4.82454e-11      7.23508 
   5.32165e-11      6.90064 
   5.86998e-11      6.58277 
    6.4748e-11      6.28072 
   7.19196e-11      5.97389 
   7.98897e-11      5.68338 
   8.87385e-11      5.40867 
   9.85723e-11      5.14873 
    1.0949e-10      4.90309 
   1.21625e-10      4.67081 
   1.35096e-10       4.4515 
   1.50067e-10      4.24431 
   1.66688e-10      4.04887 
   1.85161e-10      3.86442 
   2.05669e-10      3.69065 
   2.28462e-10      3.52686 
   2.53766e-10      3.37277 
   2.81889e-10      3.22776 
   3.13111e-10      3.09156 
    3.4781e-10      2.96364 
    3.8906e-10      2.83598 
   4.35202e-10      2.71692 
   4.86816e-10      2.60606 
   5.44552e-10      2.50298 
   6.09135e-10      2.40729 
    6.8615e-10      2.31333 
   7.72941e-10      2.22684 
   8.70667e-10      2.14747 
   9.80797e-10      2.07475 
     1.1126e-9      2.00463 
    1.26211e-9      1.94111 
    1.44174e-9      1.88075 
    1.65855e-9      1.82405 
    1.90797e-9       1.7738 
    2.21039e-9      1.72735 
    2.57867e-9      1.68495 
    3.05075e-9      1.64517 
    3.63454e-9      1.61003 
    4.39136e-9      1.57824 
     5.4183e-9      1.54924 
    6.82721e-9      1.52362 
    8.84735e-9      1.50112 
    1.19568e-8      1.48134 
    1.69716e-8      1.46471 
    2.52118e-8      1.45175 
       2.53e-8      1.45165 
    4.27851e-8      1.44078 
    8.74161e-8      1.43275 
    2.68123e-7      1.42755 
    4.41767e-6       1.4249 
    0.00073397      1.38019 
    0.00177762      1.32933 
    0.00329111      1.26824 
     0.0046415       1.2217 
     0.0051087      1.21164 
    0.00516062      1.21143 
    0.00533365       1.2145 
    0.00543748      1.22215 
    0.00551102      1.23376 
    0.00556293      1.24814 
    0.00560186      1.26493 
    0.00562782      1.28071 
    0.00565377      1.30206 
    0.00567973      1.33162 
    0.00569919      1.36196 
    0.00571217      1.38769 
    0.00572515      1.41937 
    0.00573813      1.45896 
    0.00574786      1.49547 
     0.0057576      1.53961 
    0.00576733      1.59363 
    0.00577382      1.63662 
    0.00578031      1.68658 
    0.00578658      1.74288 
    0.00579264      1.80661 
    0.00579869      1.88181 
    0.00580323      1.94727 
    0.00580778      2.02211 
    0.00581253      2.11253 
    0.00581729      2.21825 
    0.00582086      2.30973 
    0.00582443       2.4137 
    0.00582789      2.52866 
    0.00583114      2.65145 
    0.00583438      2.79156 
    0.00583762      2.95237 
    0.00583979      3.07315 
    0.00584195      3.20652 
    0.00584411      3.35431 
    0.00584606      3.50139 
    0.00584801       3.6637 
    0.00584995       3.8434 
     0.0058519      4.04303 
    0.00585385      4.26559 
    0.00585579      4.51463 
    0.00585774      4.79445 
    0.00585969      5.11032 
     0.0058615       5.4434 
    0.00586287      5.72141 
    0.00586423      6.02711 
    0.00586559      6.36426 
    0.00586695       6.7372 
    0.00586817      7.10291 
    0.00586938      7.50518 
    0.00587059      7.94897 
     0.0058718      8.44006 
     0.0058731      9.02648 
     0.0058744      9.68495 
    0.00587526      10.1698 
    0.00587613       10.696 
    0.00587699      11.2682 
    0.00587786      11.8918 
    0.00587872      12.5729 
    0.00587959      13.3183 
    0.00588045      14.1359 
    0.00588132      15.0349 
    0.00588218      16.0255 
    0.00588305      17.1198 
    0.00588391      18.3313 
    0.00588478      19.6755 
    0.00588564      21.1702 
    0.00588629      22.4019 
    0.00588694      23.7388 
    0.00588759       25.191 
    0.00588824      26.7693 
    0.00588889      28.4853 
    0.00588954       30.351 
    0.00589019      32.3788 
    0.00589083      34.5807 
    0.00589148      36.9687 
    0.00589213      39.5531 
    0.00589278      42.3427 
    0.00589343      45.3431 
    0.00589429      49.6735 
    0.00589516      54.3691 
    0.00589602      59.3948 
    0.00589732      67.4047 
    0.00589949       81.024 
    0.00590052       87.032 
     0.0059013      91.0187 
      0.005902      94.0518 
    0.00590264      96.3678 
    0.00590329      98.1024 
    0.00590392      99.1816 
    0.00590462      99.6359 
    0.00590468      99.6387 
    0.00590539       99.224 
     0.0059061      98.0002 
    0.00590658      96.7572 
    0.00590721      94.6367 
    0.00590783       92.024 
    0.00590846      88.9898 
     0.0059094      83.8182 
    0.00591066      76.1835 
     0.0059129       62.131 
    0.00591393      55.9899 
    0.00591471      51.6732 
    0.00591549      47.6414 
    0.00591627      43.9099 
    0.00591705      40.4812 
    0.00591783      37.3482 
    0.00591861      34.4968 
    0.00591939      31.9091 
    0.00592021      29.4414 
    0.00592081      27.7821 
    0.00592142       26.247 
    0.00592202      24.8264 
    0.00592263      23.5112 
    0.00592324      22.2931 
    0.00592414      20.6304 
    0.00592475      19.6211 
    0.00592553      18.4278 
    0.00592631      17.3404 
    0.00592709      16.3476 
    0.00592786      15.4396 
    0.00592864      14.6076 
    0.00592942      13.8437 
     0.0059302      13.1411 
    0.00593098      12.4937 
    0.00593184      11.8326 
    0.00593271      11.2264 
    0.00593357      10.6694 
    0.00593487      9.91537 
    0.00593617       9.2464 
    0.00593747      8.65045 
    0.00593857      8.19481 
     0.0059399      7.69508 
    0.00594124      7.24638 
    0.00594258      6.84204 
    0.00594391      6.47643 
    0.00594525      6.14484 
    0.00594658      5.84327 
    0.00594792      5.56828 
    0.00594952      5.26956 
    0.00595138      4.95826 
    0.00595325      4.68104 
    0.00595511       4.4331 
    0.00595698      4.21047 
    0.00595885      4.00987 
    0.00596071      3.82852 
    0.00596258      3.66404 
    0.00596459      3.50307 
    0.00596675      3.34704 
    0.00596892      3.20622 
    0.00597216       3.0194 
    0.00597541      2.85729 
    0.00597865      2.71571 
     0.0059819      2.59133 
    0.00598514      2.48148 
    0.00598838      2.38398 
    0.00599163      2.29705 
    0.00599595      2.19514 
    0.00599971      2.11761 
     0.0060045      2.03096 
    0.00600928      1.95566 
    0.00601407      1.88993 
    0.00602045      1.81451 
    0.00602716      1.74743 
    0.00603419      1.68783 
    0.00604121      1.63709 
    0.00605176      1.57401 
    0.00606149      1.52647 
    0.00607123      1.48688 
     0.0060842      1.44358 
    0.00609718      1.40856 
    0.00611665      1.36731 
    0.00612963      1.34543 
    0.00615558      1.31104 
    0.00618154      1.28546 
    0.00622047      1.25772 
     0.0062594      1.23805 
    0.00632429      1.21566 
    0.00640649      1.19746 
    0.00652761      1.18052 
    0.00673526      1.16281 
    0.00715055      1.14072 
    0.00823203      1.09894 
     0.0133453     0.917419 
     0.0165167     0.798018 
     0.0207597     0.633091 
     0.0219795     0.589222 
     0.0227927     0.563215 
     0.0234842     0.544512 
     0.0241634     0.530071 
     0.0242192     0.529475 
     0.0242502     0.530739 
     0.0242626     0.533217 
      0.024271     0.537525 
     0.0242752     0.542165 
     0.0242784     0.548838 
       0.02428     0.554621 
     0.0242816     0.563705 
     0.0242827     0.572756 
     0.0242838     0.585453 
     0.0242846     0.598276 
     0.0242854     0.614834 
     0.0242861     0.634699 
     0.0242868     0.656196 
     0.0242874     0.682395 
     0.0242881     0.714141 
     0.0242885     0.738844 
      0.024289     0.766725 
     0.0242894     0.798077 
     0.0242898     0.833235 
     0.0242903     0.872496 
     0.0242907     0.916192 
     0.0242911     0.964618 
     0.0242916       1.0181 
      0.024292      1.07689 
     0.0242924      1.14127 
     0.0242929      1.21144 
     0.0242933      1.29114 
     0.0242938      1.37749 
     0.0242942       1.4706 
     0.0242947      1.57044 
     0.0242952      1.67694 
     0.0242958      1.84869 
     0.0242965      2.03376 
     0.0242972      2.22912 
     0.0242982      2.53859 
     0.0243004      3.22118 
     0.0243011      3.44249 
     0.0243019       3.6402 
     0.0243027      3.84138 
     0.0243035      4.00014 
      0.024304      4.09803 
     0.0243048      4.18629 
     0.0243053      4.23066 
      0.024306      4.25425 
     0.0243062      4.25463 
     0.0243067      4.24316 
     0.0243072      4.20882 
     0.0243079      4.13687 
     0.0243085      4.04448 
     0.0243092       3.9254 
       0.02431      3.74423 
     0.0243109      3.50995 
     0.0243118      3.24987 
     0.0243143      2.45353 
     0.0243154      2.15099 
      0.024316      1.96185 
     0.0243167      1.79932 
     0.0243172      1.66152 
     0.0243178      1.53377 
     0.0243184      1.41634 
     0.0243189      1.30926 
     0.0243194      1.23566 
     0.0243198      1.16771 
     0.0243202      1.10519 
     0.0243207      1.04794 
     0.0243211     0.994028 
     0.0243216     0.942202 
      0.024322     0.895742 
     0.0243225     0.854279 
      0.024323     0.817414 
     0.0243234     0.784774 
     0.0243239     0.755952 
     0.0243244     0.730606 
      0.024325     0.701599 
     0.0243256      0.67736 
     0.0243262     0.657179 
     0.0243269     0.640425 
     0.0243275     0.626544 
     0.0243284     0.610067 
     0.0243294     0.597623 
     0.0243303     0.588166 
     0.0243314     0.579762 
     0.0243329     0.571852 
     0.0243348     0.564634 
     0.0243377     0.557591 
     0.0243425     0.550419 
     0.0243503     0.543905 
     0.0243619     0.538767 
     0.0243864     0.533937 
     0.0244274     0.530789 
     0.0245438     0.527549 
     0.0247767     0.524965 
     0.0251117        0.524 
      0.025466     0.526156 
     0.0257818     0.531046 
     0.0261168     0.540104 
     0.0263262     0.548094 
     0.0265356     0.558158 
      0.026745     0.570556 
     0.0269544     0.585593 
     0.0271721     0.604404 
     0.0273899     0.626888 
     0.0275909     0.651548 
     0.0277919     0.679907 
     0.0279259     0.701467 
     0.0280934     0.731577 
      0.028261     0.765558 
      0.028395     0.795841 
      0.028529     0.829164 
      0.028663     0.865806 
      0.028797     0.906086 
      0.028931     0.950356 
      0.029065     0.999007 
      0.029199      1.05248 
     0.0293331      1.11125 
     0.0294671      1.17588 
     0.0296011      1.24696 
     0.0297351      1.32517 
     0.0298691      1.41129 
     0.0300031      1.50618 
     0.0301371      1.61079 
     0.0302711      1.72622 
     0.0304051      1.85371 
     0.0305392      1.99464 
     0.0306732      2.15059 
     0.0308072      2.32324 
     0.0309077      2.46535 
     0.0310082      2.61829 
     0.0311087      2.78473 
     0.0312092      2.96397 
     0.0313097      3.15933 
     0.0314102      3.36999 
     0.0315107      3.59994 
     0.0316112      3.84824 
     0.0317117       4.1197 
     0.0318123       4.4132 
     0.0319128      4.73454 
     0.0320133      5.08238 
     0.0321138      5.46368 
     0.0322143      5.87684 
     0.0323148      6.33014 
     0.0324153      6.82161 
     0.0325158      7.36105 
     0.0326163      7.94593 
     0.0327168       8.5876 
     0.0328173      9.28277 
     0.0329178      10.0442 
     0.0330184      10.8674 
     0.0331189       11.766 
     0.0332194      12.7337 
     0.0333199      13.7839 
     0.0334204      14.9075 
     0.0335209      16.1156 
     0.0336214       17.396 
     0.0337889      19.6956 
     0.0339313      21.7648 
      0.034258      26.6169 
      0.034392      28.5037 
     0.0344925      29.7833 
      0.034593      30.9288 
     0.0346935      31.8857 
     0.0348007       32.697 
     0.0348962      33.1851 
      0.034995      33.4911 
      0.035062      33.5624 
     0.0351625      33.4727 
      0.035263      33.1842 
     0.0353636      32.6917 
     0.0354641      32.0448 
     0.0355981      30.9701 
     0.0357656      29.3962 
     0.0363016       23.833 
     0.0365026      21.8729 
     0.0366367      20.6464 
     0.0367707      19.4938 
     0.0369047      18.4167 
     0.0370387      17.4143 
     0.0371727      16.4841 
     0.0373067      15.6224 
     0.0374407       14.825 
     0.0375747      14.0874 
     0.0377088      13.4053 
     0.0378428      12.7741 
     0.0379768      12.1897 
     0.0381108      11.6482 
     0.0382448      11.1459 
     0.0384458      10.4557 
     0.0386468      9.84221 
     0.0388478      9.28499 
     0.0390489      8.78659 
     0.0392499       8.3314 
     0.0394509       7.9216 
     0.0397189      7.42921 
     0.0399869       6.9924 
      0.040255      6.60302 
      0.040523      6.25432 
      0.040791      5.94068 
      0.041126      5.59022 
     0.0414778      5.26677 
     0.0417291      5.05725 
     0.0419971      4.85305 
      0.042374      4.59476 
     0.0428054      4.33202 
     0.0432241      4.10641 
     0.0435382      3.95286 
     0.0438733      3.80307 
     0.0443758       3.6018 
     0.0448783      3.42102 
     0.0453809      3.26139 
     0.0458834      3.11637 
     0.0465529      2.94552 
     0.0471604       2.8081 
     0.0479794      2.64468 
     0.0485255      2.54744 
      0.049345       2.4169 
     0.0501655      2.29953 
      0.050986      2.19592 
       0.05208      2.07301 
      0.053174      1.96541 
      0.054268      1.87056 
      0.055362      1.78658 
     0.0564561      1.71211 
     0.0578236      1.63074 
     0.0591911      1.56186 
     0.0605586      1.50475 
     0.0616252       1.4689 
     0.0628552      1.43625 
     0.0640047      1.41657 
      0.065044      1.40799 
     0.0653722       1.4072 
     0.0665756      1.41496 
     0.0674508      1.43168 
     0.0681072      1.45177 
     0.0687636      1.47825 
       0.06942      1.51366 
     0.0700764       1.5574 
      0.070514      1.59273 
     0.0709516      1.63329 
     0.0713892      1.67964 
     0.0718268      1.73239 
     0.0722644      1.79226 
     0.0727021      1.86003 
     0.0731396       1.9366 
     0.0735772        2.023 
     0.0740148      2.12038 
     0.0744525      2.23007 
     0.0748901      2.35355 
     0.0753277      2.49255 
     0.0757653      2.64898 
     0.0762029      2.82502 
     0.0765311      2.97204 
     0.0768593      3.13151 
     0.0771875      3.30729 
     0.0775157      3.49794 
     0.0778439      3.70815 
     0.0781721      3.93618 
     0.0785003      4.18762 
     0.0788285      4.46037 
     0.0791567      4.76102 
     0.0794849      5.08697 
     0.0798131       5.4459 
     0.0801413      5.83453 
     0.0804695      6.26156 
     0.0807977      6.72281 
     0.0811259       7.2277 
     0.0814541      7.77083 
     0.0817823      8.36164 
     0.0821105       8.9931 
     0.0824387       9.6782 
     0.0827669      10.3938 
     0.0832045      11.4195 
     0.0837515      12.7845 
     0.0848455      15.6073 
     0.0852831      16.6834 
     0.0857207      17.6494 
     0.0860599      18.2911 
     0.0863115      18.7081 
     0.0865959      19.0898 
     0.0869241      19.4077 
     0.0872523      19.6067 
     0.0875805      19.6676 
     0.0879908      19.5598 
     0.0883463      19.3281 
     0.0886745      19.0005 
     0.0890574      18.5209 
     0.0895497       17.777 
     0.0903702      16.4307 
      0.090589      16.1427 
     0.0906984      16.0569 
     0.0907531      16.0446 
     0.0908249      16.0826 
     0.0908728      16.1616 
     0.0909207      16.3131 
     0.0909566      16.4996 
     0.0909925      16.7817 
     0.0910164      17.0458 
     0.0910403      17.3962 
     0.0910602      17.7747 
       0.09108      18.2579 
     0.0910949      18.7065 
     0.0911098      19.2446 
     0.0911243      19.8672 
     0.0911378      20.5546 
     0.0911513      21.3502 
     0.0911648      22.2525 
     0.0911829      23.5906 
     0.0912059      25.3379 
     0.0912198      26.2537 
     0.0912303      26.7739 
     0.0912407      27.0933 
     0.0912493      27.1797 
     0.0912579      27.0998 
     0.0912665      26.8592 
     0.0912722      26.6173 
     0.0912836      25.9711 
      0.091295      25.1679 
     0.0913291      22.4875 
     0.0913462      21.2598 
     0.0913633      20.1942 
     0.0913803      19.2948 
     0.0913961      18.5965 
     0.0914113      18.0306 
     0.0914264      17.5506 
     0.0914466      17.0193 
     0.0914669      16.5862 
     0.0914911      16.1651 
     0.0915154      15.8249 
     0.0915518      15.4238 
     0.0915892      15.1042 
     0.0916397      14.7709 
     0.0917196      14.3826 
     0.0917742      14.1743 
     0.0918955       13.803 
     0.0920976      13.3197 
     0.0923402      12.8344 
     0.0927142      12.1729 
     0.0932702      11.2915 
     0.0938767      10.4279 
     0.0944832      9.65138 
     0.0948875      9.17712 
     0.0952919        8.735 
     0.0956962      8.32278 
     0.0961005      7.93831 
     0.0965049      7.57952 
     0.0971114      7.08761 
     0.0977179      6.63834 
     0.0983244      6.23314 
      0.099032      5.80671 
     0.0996714      5.45998 
     0.0996791      5.45938 
     0.0996925      5.47965 
     0.0996978       5.5118 
     0.0997039      5.58552 
     0.0997085      5.67957 
      0.099713      5.80413 
     0.0997235      6.13986 
     0.0997272       6.2254 
     0.0997308      6.26764 
     0.0997323      6.27172 
     0.0997356      6.25078 
     0.0997393       6.1835 
     0.0997448      6.02622 
     0.0997536      5.74923 
     0.0997583       5.6367 
     0.0997634      5.55012 
     0.0997679      5.50075 
     0.0997765      5.45281 
     0.0997904      5.42392 
     0.0998584      5.37265 
      0.100399      5.10445 
      0.101109      4.79032 
      0.101643      4.57291 
      0.102485      4.26107 
      0.103361      3.97049 
      0.103782      3.84189 
      0.103792      3.84672 
        0.1038      3.86962 
      0.103805      3.91356 
      0.103809      3.96863 
      0.103813      4.03794 
      0.103817      4.15772 
      0.103824      4.37692 
      0.103829      4.54127 
      0.103833      4.62995 
      0.103835      4.67236 
      0.103838         4.69 
      0.103841      4.67545 
      0.103844       4.6359 
      0.103846      4.56773 
      0.103851      4.42123 
      0.103858      4.19772 
      0.103862      4.07461 
      0.103867      3.98753 
      0.103871      3.92272 
      0.103876      3.88022 
      0.103882      3.85317 
      0.103893      3.83318 
       0.10393      3.80956 
      0.104248      3.71045 
      0.104892      3.53626 
      0.105663      3.34618 
      0.106484      3.16121 
      0.107329      2.99137 
      0.108174      2.83785 
      0.109019      2.70405 
      0.109583      2.62444 
      0.110146      2.55345 
       0.11071      2.49053 
      0.111414      2.42825 
      0.111978       2.3919 
      0.112541      2.37022 
      0.112902      2.36499 
      0.113478      2.37609 
      0.113865      2.39925 
      0.114203      2.43149 
      0.114485       2.4697 
      0.114711      2.50867 
      0.114936      2.55636 
      0.115161      2.61411 
